Time,Temperature,Humidity,Pressure
0,20.5,65,1013.2
1,21.2,64,1013.1
2,22.0,63,1013.0
3,23.1,61,1012.8
4,24.5,58,1012.5
5,25.8,55,1012.2
6,26.9,52,1011.9
7,27.8,50,1011.6
8,28.5,48,1011.3
9,29.0,47,1011.0
10,29.2,46,1010.8
11,29.0,46,1010.7
12,28.5,47,1010.8
13,27.8,49,1011.0
14,26.9,51,1011.3
15,25.8,54,1011.6
16,24.5,57,1011.9
17,23.1,60,1012.2
18,22.0,62,1012.5
19,21.2,64,1012.8
20,20.5,65,1013.0
